fast,slow,mid,trades,win_rate,net_profit,profit_factor,max_dd
3,20,10,8882,32.019815356901596,4107.600000000002,1.1237683354219514,747.5000000000027
3,20,15,8887,31.7880049510521,4159.820000000003,1.1248677350324086,713.0300000000025
3,25,10,7649,31.272061707412735,6009.720000000014,1.2051304806693917,667.5399999999936
3,25,15,7560,31.203703703703702,5928.790000000014,1.2028697036950355,833.389999999993
3,25,20,7647,31.149470380541388,6213.730000000012,1.2111552877769967,600.8999999999942
3,30,10,6733,30.23912074855191,4837.360000000004,1.178042648291275,1080.1099999999951
3,30,15,6643,30.227306939635707,4970.050000000003,1.1836017573873105,921.3599999999979
3,30,20,6623,30.303487845387288,5403.590000000006,1.199178749214412,1031.4299999999976
3,30,25,6753,30.06071375684881,5592.190000000006,1.203077728700714,912.3899999999976
3,35,10,6075,29.382716049382715,4249.3499999999985,1.160126357137151,916.0299999999997
3,35,15,5947,29.443416848831344,4362.17,1.1671001063775586,874.5900000000001
3,35,20,5909,29.378913521746487,4436.74,1.1715238956801435,982.2200000000003
3,35,25,6006,29.403929403929403,4669.929999999998,1.1784187279050689,999.9400000000005
3,35,30,6133,29.235284526332954,4615.69,1.1712922896963887,996.8000000000002
3,40,10,5666,28.644546417225556,3971.8499999999885,1.1552301279758932,884.2799999999943
3,40,15,5499,28.696126568466994,4047.419999999989,1.1620259022389032,858.2999999999947
3,40,20,5464,28.733528550512446,4315.34999999999,1.1752703269673863,892.7099999999946
3,40,25,5498,28.574026918879593,4387.769999999991,1.1769952235407917,839.0099999999939
3,40,30,5593,28.482031110316466,4142.65999999999,1.1617298511127792,914.5299999999943
3,45,10,5251,28.451723481241668,4119.51000000001,1.1693428346511725,992.1099999999915
3,45,15,5102,28.635829086632693,4121.970000000008,1.174098646480876,958.8999999999924
3,45,20,5039,28.59694383806311,3782.5000000000055,1.1610231579610575,940.2599999999929
3,45,25,5021,28.460466042620993,3295.640000000004,1.1403308866423278,1335.2599999999957
3,45,30,5053,28.35939046111221,2940.9400000000023,1.1231300369313912,1302.7399999999952
4,20,10,8037,34.614906059474926,5938.100000000022,1.1895799810997887,526.9199999999983
4,20,15,8028,34.29247633283508,5738.310000000023,1.1824737950559212,536.1399999999976
4,25,10,6902,33.61344537815126,7427.769999999997,1.2671543547544188,565.5499999999975
4,25,15,6856,33.50350058343057,7326.719999999999,1.2637893435401544,607.239999999997
4,25,20,6865,33.401310997815,7278.729999999995,1.2607726307198615,613.0499999999975
4,30,10,6106,32.0013101867016,5873.699999999979,1.2243331819624457,630.789999999999
4,30,15,6024,31.97211155378486,5746.709999999979,1.2195570355591836,657.9399999999996
4,30,20,6000,32.0,6005.149999999978,1.2305744443121904,653.6599999999999
4,30,25,6068,32.05339485827291,6125.359999999976,1.2341038496258752,632.0200000000004
4,35,10,5526,30.45602605863192,5140.039999999995,1.2042403787238807,928.8399999999983
4,35,15,5430,30.791896869244937,5575.219999999992,1.2255341509955269,856.8499999999995
4,35,20,5405,30.730804810360777,5437.279999999992,1.2201479454051491,922.8299999999999
4,35,25,5469,30.444322545255073,5254.1399999999885,1.2105055243206724,926.5499999999993
4,35,30,5505,30.33605812897366,5325.93999999999,1.2109958354990422,940.4999999999991
4,40,10,5062,30.34373765310154,4304.259999999989,1.1751017432636273,951.6599999999962
4,40,15,4977,30.48020896122162,4514.399999999987,1.1866301321839408,934.8799999999974
4,40,20,4940,30.647773279352226,4871.589999999989,1.2048757121523133,987.9199999999973
4,40,25,4961,30.437411812134652,4740.919999999987,1.1982027253857197,950.9099999999971
4,40,30,4993,30.262367314239935,4630.859999999988,1.1902965938715324,927.739999999997
4,45,10,4770,29.832285115303982,4097.959999999983,1.172592702096107,1088.0699999999924
4,45,15,4674,29.931536157466837,4318.329999999982,1.1858560496083237,1076.3599999999933
4,45,20,4607,30.08465378771435,4270.269999999982,1.1859816991642231,1073.4799999999932
4,45,25,4586,30.00436109899695,3459.5299999999843,1.1513528672140019,1499.2299999999996
4,45,30,4600,29.652173913043477,3138.449999999983,1.1358392911400288,1471.5199999999995
5,20,10,7432,36.08719052744887,6690.560000000026,1.2237393310519864,580.2200000000021
5,20,15,7431,36.06513255281927,6699.080000000027,1.2240082178835952,602.9300000000012
5,25,10,6427,34.40174264820289,6744.820000000005,1.24673176852321,438.69000000000415
5,25,15,6408,34.394506866416975,6727.140000000005,1.2454855966777847,453.7900000000027
5,25,20,6388,34.18910457107076,6816.460000000005,1.2488693746666177,461.70000000000255
5,30,10,5703,32.64948272838857,4836.000000000004,1.1866327568274748,707.3400000000029
5,30,15,5629,32.90104814354237,5514.880000000004,1.2138889265955242,660.1900000000023
5,30,20,5622,32.835289932408394,5007.6,1.1941103276648692,666.7900000000018
5,30,25,5622,32.924226254002136,5041.920000000002,1.1955695539686668,655.5400000000018
5,35,10,5161,31.796163534198797,5033.050000000008,1.2045027540351614,992.6599999999962
5,35,15,5117,32.167285518858705,5972.000000000007,1.2452755098646184,965.9799999999959
5,35,20,5081,31.922849832710096,5146.0400000000045,1.2125353586124268,901.9099999999962
5,35,25,5107,32.034462502447624,5556.140000000007,1.2284952184179947,903.6799999999957
5,35,30,5112,31.92488262910798,5325.530000000004,1.21656709638249,963.8099999999968
5,40,10,4731,31.49439864722046,4448.560000000001,1.1859683475565048,1059.239999999998
5,40,15,4676,31.479897348160822,4586.489999999999,1.194375824027727,1062.9699999999984
5,40,20,4639,31.536969174391032,4320.51,1.1843779472451128,1021.9399999999978
5,40,25,4642,31.55967255493322,4082.479999999998,1.1733268516769162,1126.1299999999992
5,40,30,4649,31.383093138309313,3834.1499999999987,1.1617833959512696,1136.4699999999993
5,45,10,4409,31.39033794511227,3947.38999999999,1.1673292907541364,1194.7000000000048
5,45,15,4325,31.46820809248555,4175.29999999999,1.1806041217171337,1250.3100000000031
5,45,20,4278,31.53342683496961,4372.609999999989,1.1938230835379742,1057.6500000000042
5,45,25,4266,31.622128457571495,3522.40999999999,1.1562663174374592,1082.8500000000072
5,45,30,4254,31.57028678890456,3101.449999999989,1.135998386322327,1228.9600000000078
6,20,10,7011,36.528312651547566,6416.050000000008,1.2184166414754178,529.049999999992
6,20,15,7048,36.43586833144155,6121.29000000001,1.2067770055676157,574.2199999999966
6,25,10,5983,35.43372889854588,6945.839999999987,1.2647289857475255,613.9199999999992
6,25,15,6001,35.344109315114146,7364.64999999999,1.2800494188080465,591.7399999999998
6,25,20,5961,35.31286696862942,6892.4699999999875,1.261657226592158,613.9199999999992
6,30,10,5343,33.16488863934119,4956.54,1.1938705104857033,584.5800000000017
6,30,15,5339,33.171005806330776,5234.220000000001,1.2049369162244958,567.8400000000029
6,30,20,5307,33.31449029583569,5170.129999999999,1.2025027456645134,613.180000000003
6,30,25,5299,33.30817135308549,5429.109999999999,1.2129437693146752,603.180000000003
6,35,10,4781,33.17297636477724,5589.3,1.2342509380640905,1052.4599999999964
6,35,15,4766,33.10952580780529,5585.8099999999995,1.234415418730706,995.9200000000001
6,35,20,4731,33.16423589093215,5251.889999999999,1.2216599946398687,981.5599999999995
6,35,25,4731,33.24878461213274,5469.069999999999,1.2305590299866236,993.9799999999996
6,35,30,4715,33.10710498409332,5676.34,1.2388498193375135,1056.229999999996
6,40,10,4396,32.1656050955414,4331.949999999989,1.1862208720241174,1053.6399999999994
6,40,15,4393,32.164807648531756,4617.639999999989,1.1996391688171988,1035.869999999999
6,40,20,4357,32.31581363323388,4535.869999999989,1.197474981867132,996.2699999999986
6,40,25,4348,32.405703771849126,4749.809999999989,1.2071609914641892,918.6699999999992
6,40,30,4354,32.47588424437299,4594.559999999988,1.1989315982123447,962.8899999999994
6,45,10,4131,31.85669329460179,4243.2199999999975,1.1860172926176928,1136.020000000005
6,45,15,4092,31.89149560117302,4409.1299999999965,1.1949375214705698,1054.2100000000046
6,45,20,4043,31.9812020776651,4557.999999999996,1.2050029167264478,1070.0700000000043
6,45,25,4022,32.1730482347091,4303.059999999997,1.193775319231718,968.4000000000042
6,45,30,4009,32.2025442753804,3953.0799999999954,1.1765195759507772,983.4700000000021
7,20,10,6629,37.456629959269875,7422.870000000001,1.2663758718014508,545.3100000000086
7,20,15,6675,37.36329588014981,7197.560000000007,1.255962207170652,548.330000000009
7,25,10,5655,36.728558797524315,6880.359999999995,1.2713163438249973,521.7299999999968
7,25,15,5689,36.64967481103885,6951.169999999995,1.2731944298153905,521.7299999999968
7,25,20,5668,36.52081863091038,7159.199999999995,1.2805502848530588,521.7299999999968
7,30,10,4947,35.03133212047706,5822.19,1.2380682508197385,781.3600000000015
7,30,15,4988,34.74338412189254,5877.670000000003,1.2387814555761527,800.5000000000018
7,30,20,4979,34.846354689696724,5828.740000000002,1.2363490092686682,817.5700000000015
7,30,25,4935,35.07598784194529,6137.660000000002,1.2504183049682922,817.5700000000015
7,35,10,4473,34.294656829868096,5505.669999999989,1.2351457640901582,1107.0900000000056
7,35,15,4498,34.03734993330369,5341.15999999999,1.2271163046422437,1072.1300000000037
7,35,20,4483,34.15123801026098,5248.199999999988,1.2230110787409867,1072.1300000000037
7,35,25,4471,34.2428986803847,5431.249999999989,1.2305278509477473,1095.3700000000053
7,35,30,4451,34.127162435407776,5525.079999999989,1.235082177582547,1144.940000000005
7,40,10,4125,33.842424242424244,4884.079999999992,1.216668951324369,1036.3100000000013
7,40,15,4153,33.830965567059955,5078.09999999999,1.2250468986196534,1007.0400000000009
7,40,20,4133,33.77691749334624,4895.499999999991,1.2178444193470583,1019.7300000000005
7,40,25,4110,33.74695863746959,5061.41999999999,1.225716224978616,1014.2400000000007
7,40,30,4106,33.70677057963955,4977.449999999991,1.2211746837647928,983.0600000000004
7,45,10,3873,32.89439710818487,4395.059999999988,1.2017965386052853,943.4699999999993
7,45,15,3886,32.758620689655174,4489.329999999986,1.205620647943692,784.25
7,45,20,3861,32.634032634032636,4157.5899999999865,1.190539806031697,808.9099999999999
7,45,25,3830,32.84595300261097,4399.709999999986,1.2025532600563955,786.3500000000004
7,45,30,3832,32.82881002087683,4055.4599999999855,1.1866485270706308,785.3400000000001
8,20,10,6334,38.08020208399116,6439.940000000013,1.2366679198423283,596.3099999999986
8,20,15,6474,38.12171763978993,6950.800000000013,1.2504117808965374,582.0399999999986
8,25,10,5319,37.431848091746566,7367.039999999989,1.301946554889257,423.1100000000024
8,25,15,5437,37.15284164061063,7285.61999999999,1.2937600750929585,461.4700000000007
8,25,20,5428,37.251289609432575,7614.139999999992,1.3080000469232311,450.9100000000017
8,30,10,4672,35.595034246575345,6221.140000000005,1.26387138669543,844.8299999999999
8,30,15,4778,35.60066973629134,6705.940000000008,1.2807868634453354,879.6099999999997
8,30,20,4754,35.59108119478334,6538.490000000007,1.273550548043265,879.6099999999997
8,30,25,4732,35.798816568047336,6666.400000000007,1.2805279972529602,863.9700000000003
8,35,10,4197,35.16797712651894,5336.239999999994,1.2327496679671734,1166.7799999999997
8,35,15,4302,34.89074848907485,5290.699999999995,1.2271822606582259,1165.4300000000003
8,35,20,4290,35.10489510489511,5399.989999999997,1.232482917855453,1193.7699999999995
8,35,25,4267,34.98945394891024,5351.139999999995,1.2312191728438002,1201.5299999999997
8,35,30,4246,34.99764484220443,5388.089999999996,1.2332708459606891,1201.5299999999997
8,40,10,3897,34.6676930972543,4362.179999999991,1.1949336327971907,1007.3399999999956
8,40,15,3969,34.593096497858404,4350.99999999999,1.1927500124040455,1007.3399999999956
8,40,20,3955,34.664981036662454,4429.38999999999,1.1969670895149713,955.3999999999951
8,40,25,3934,34.672089476359936,4557.6099999999915,1.204116812459804,955.3999999999951
8,40,30,3936,34.5020325203252,4398.979999999991,1.1957090626298537,955.3999999999951
8,45,10,3614,34.4770337576093,4406.279999999981,1.2114289114262233,867.5799999999963
8,45,15,3701,34.504188057281816,5176.579999999978,1.2452324544137123,735.7099999999991
8,45,20,3683,34.56421395601412,4977.059999999977,1.2359667384309172,750.3999999999996
8,45,25,3661,34.608030592734224,4409.179999999976,1.2095776249250765,902.170000000001
8,45,30,3658,34.472389283761615,3987.479999999976,1.1892111835165495,812.3000000000002
9,20,10,6100,38.31147540983606,6278.860000000008,1.243144820578434,400.5299999999979
9,20,15,6341,38.16432739315565,6874.7100000000055,1.257663903643503,465.4299999999953
9,25,10,5042,37.84212614042047,6552.269999999993,1.27820487127186,693.7299999999968
9,25,15,5234,37.657623232709206,7119.11999999999,1.29238877893292,710.8899999999958
9,25,20,5230,37.70554493307839,7043.71999999999,1.2897220671775527,694.6999999999962
9,30,10,4383,36.276522929500345,5949.63000000001,1.2618624463258639,804.5599999999959
9,30,15,4555,36.223929747530185,6667.750000000013,1.2862222271826018,804.899999999996
9,30,20,4557,36.14219881500988,6681.64000000001,1.2864223272274915,783.7899999999963
9,30,25,4523,36.34755693124033,6882.500000000012,1.2969057097351429,785.3199999999961
9,35,10,3960,35.42929292929293,5443.4899999999925,1.2490144161931256,1074.1999999999998
9,35,15,4122,35.03153808830665,5588.379999999991,1.2481294980958642,1067.1800000000003
9,35,20,4134,35.002418964683116,5473.659999999992,1.2424067158891217,1079.9099999999999
9,35,25,4123,35.09580402619452,5649.979999999992,1.2511751928721113,1106.3399999999992
9,35,30,4085,35.201958384332926,5547.129999999994,1.2474306311674994,1106.3399999999992
9,40,10,3658,35.183160196828865,3681.109999999995,1.1696938824901522,930.6099999999997
9,40,15,3782,35.03437334743522,4664.679999999992,1.210924991013029,959.1199999999981
9,40,20,3792,35.04746835443038,4664.689999999991,1.2104672096013713,959.119999999999
9,40,25,3797,35.13299973663418,4660.979999999991,1.2101682931745286,959.119999999999
9,40,30,3794,35.10806536636795,4587.869999999993,1.2067574839046362,959.119999999999
9,45,10,3386,35.41051388068517,4761.619999999997,1.2381188608988827,745.9599999999928
9,45,15,3516,35.01137656427759,5131.979999999993,1.2494988854668272,682.8899999999976
9,45,20,3512,34.851936218678816,5010.939999999993,1.2434935991661542,665.6199999999981
9,45,25,3513,34.95587816680899,4528.939999999992,1.219584117976754,665.6199999999981
9,45,30,3507,34.87311092101511,4601.909999999993,1.2232612498799251,646.7799999999979
10,20,15,6170,38.93030794165316,7265.35,1.2749583135592384,447.97999999999956
10,25,15,5127,38.11195630973279,7239.480000000006,1.2999435700986162,558.8500000000013
10,25,20,5141,38.22213577125073,7154.980000000005,1.295199599633135,572.7599999999984
10,30,15,4353,37.00895933838732,6771.610000000011,1.2986834148379052,1193.2799999999988
10,30,20,4368,37.01923076923077,6531.820000000009,1.2843915585800931,1193.2799999999988
10,30,25,4320,37.15277777777778,6571.090000000009,1.288797229412877,1193.2799999999988
10,35,15,3982,35.73581115017579,4658.319999999993,1.2060547993801969,1078.2400000000007
10,35,20,3995,35.669586983729666,4724.109999999992,1.2084318515632684,1068.7399999999998
10,35,25,3967,35.77010335265944,4761.609999999993,1.2117555761606484,1068.7399999999998
10,35,30,3936,35.823170731707314,4894.379999999992,1.218349674084655,1039.7400000000007
10,40,15,3652,35.13143483023001,4194.219999999985,1.1894493879579018,982.6400000000067
10,40,20,3665,35.11596180081855,4217.509999999987,1.1899856300480645,1011.1800000000067
10,40,25,3671,35.14028874965949,4303.359999999986,1.1940242990258108,1011.1800000000057
10,40,30,3663,34.998634998635,4113.249999999984,1.1850945193662432,1026.270000000006
10,45,15,3369,35.826654793707334,3997.5700000000033,1.1954197062718488,786.9699999999975
10,45,20,3406,35.64298297122725,4628.920000000003,1.2246154443376907,754.4099999999999
10,45,25,3394,35.73954036535062,3904.480000000003,1.1892366471039546,746.2600000000002
10,45,30,3389,35.8512835644733,3343.1500000000033,1.1619609034329037,710.1500000000005
11,20,15,6104,38.777850589777195,5774.559999999991,1.216960584557015,635.700000000003
11,25,15,4951,38.41648151888507,7611.049999999994,1.3299890958202087,474.5200000000009
11,25,20,4976,38.64549839228296,7794.099999999993,1.3359816949658134,513.8600000000024
11,30,15,4259,37.45010565860531,6362.329999999996,1.288291974507285,736.8499999999976
11,30,20,4294,37.40102468560782,6420.419999999995,1.2867140830371482,736.8499999999976
11,30,25,4249,37.32642974817604,6264.859999999997,1.281813851156677,736.8499999999976
11,35,15,3829,35.857926351527816,5003.819999999992,1.2262268978266695,1020.3800000000019
11,35,20,3869,36.02998190746963,5109.8599999999915,1.2295473749797285,978.0899999999992
11,35,25,3858,36.00311041990669,5123.739999999991,1.2309421375852156,980.7300000000014
11,35,30,3832,36.03862212943633,5098.539999999991,1.2303875052642799,992.5700000000015
11,40,15,3538,36.09383832673827,4142.069999999995,1.1930605641542646,1025.3099999999986
11,40,20,3566,35.83847448121144,3980.7899999999936,1.1827684475707867,1214.5699999999997
11,40,25,3578,35.578535494689774,3912.669999999993,1.1793245589953307,1214.5699999999988
11,40,30,3574,35.61835478455512,4145.049999999994,1.1913399962240232,1032.0499999999993
11,45,15,3248,36.176108374384235,3613.680000000014,1.1775255541041567,771.4299999999976
11,45,20,3297,35.881104033970274,4236.630000000014,1.2059856278807455,657.2999999999975
11,45,25,3300,35.666666666666664,4260.650000000014,1.207001712119122,657.2999999999975
11,45,30,3301,35.71644956073917,3512.390000000013,1.1700431886916414,635.1199999999972
12,20,15,6007,39.73697353088064,6104.16,1.234686113628316,595.7600000000011
12,25,15,4828,38.4009942004971,7253.210000000003,1.31796691188236,463.74999999999545
12,25,20,4881,38.250358533087486,7004.490000000003,1.3019301660758382,511.3300000000004
12,30,15,4138,37.4818753020783,6193.489999999994,1.2818412657962874,788.5
12,30,20,4189,37.50298400572929,6439.319999999996,1.2900555397900024,788.5
12,30,25,4160,37.59615384615385,6482.149999999996,1.2940267947375772,784.2200000000003
12,35,15,3718,36.659494351802046,5185.98999999998,1.2396625123852048,750.9000000000024
12,35,20,3786,36.47649234020074,5091.89999999998,1.2311665058033368,750.9000000000024
12,35,25,3783,36.55828707375099,5292.0999999999785,1.2413585511463392,772.8500000000022
12,35,30,3753,36.69064748201439,5213.839999999977,1.2392796973620128,750.9000000000024
12,40,15,3404,36.16333725029377,3504.5199999999995,1.1664706430019551,955.0399999999981
12,40,20,3470,36.05187319884726,3936.909999999996,1.1826828308551254,1128.869999999998
12,40,25,3476,35.903337169159954,3946.5799999999945,1.1825409049386566,1129.869999999998
12,40,30,3482,36.099942561746126,3769.029999999998,1.1757013780957268,1001.7599999999975
12,45,15,3158,36.067131095630145,3345.630000000009,1.166623918704832,622.3099999999986
12,45,20,3232,36.04579207920792,4078.1700000000083,1.2000098088019289,636.9999999999982
12,45,25,3236,36.00123609394314,3959.500000000011,1.1941442428717761,636.9999999999982
12,45,30,3231,36.14979882389353,4033.2700000000095,1.197804240368295,636.9999999999982
13,20,15,5964,40.49295774647887,7479.750000000006,1.2965876215732681,619.809999999999
13,25,15,4689,38.94220516101514,7147.279999999991,1.324780405789198,539.8800000000001
13,25,20,4780,38.84937238493724,6880.809999999992,1.3037370264820443,642.7200000000012
13,30,15,3960,37.72727272727273,6539.959999999986,1.3109112941833077,638.7200000000075
13,30,20,4064,37.696850393700785,6794.749999999987,1.3149949608223637,680.2900000000063
13,30,25,4036,37.784935579781965,6787.659999999985,1.3178841753377333,684.3400000000074
13,35,15,3607,36.92819517604658,5026.599999999982,1.23584168682217,731.3000000000011
13,35,20,3703,36.834998649743454,5119.359999999982,1.2351132220876062,731.3000000000011
13,35,25,3710,36.711590296495956,5261.519999999982,1.242246886000977,731.3000000000011
13,35,30,3682,36.77349266702879,5185.009999999983,1.2396219849165522,731.3000000000011
13,40,15,3288,36.222627737226276,3179.4099999999908,1.153225759813087,783.7299999999987
13,40,20,3381,36.231884057971016,3554.0199999999895,1.1671095939363159,836.1999999999971
13,40,25,3397,36.14954371504268,3681.5299999999907,1.1726017622442402,865.5799999999963
13,40,30,3401,36.13643046162893,3735.66999999999,1.1749507088096582,838.239999999997
13,45,15,3070,36.416938110749186,3170.779999999999,1.1581266058120419,633.5199999999977
13,45,20,3153,36.473200126863304,3446.939999999999,1.1688755105670288,637.4999999999973
13,45,25,3173,36.40088244563505,3362.7799999999984,1.1638406407889033,609.2499999999973
13,45,30,3179,36.39509279647688,3138.4199999999983,1.1521363129574869,623.739999999998
14,20,15,5991,40.42730762810883,7402.050000000013,1.2978284661253596,583.840000000001
14,25,15,4548,39.99560246262093,6919.759999999994,1.3166765745938778,558.4799999999996
14,25,20,4691,40.18332978043061,7201.339999999993,1.320587170797094,594.5700000000015
14,30,15,3868,38.18510858324716,5804.759999999984,1.2746231994996486,702.3999999999987
14,30,20,4010,38.30423940149626,6248.639999999984,1.2871873687268065,765.579999999999
14,30,25,3992,38.326653306613224,6047.219999999981,1.2788313945258438,790.3499999999995
14,35,15,3488,37.32798165137615,4315.169999999993,1.2075800534732084,611.4599999999989
14,35,20,3592,37.02672605790646,4546.799999999992,1.2103875984774797,657.0399999999972
14,35,25,3598,37.07615341856587,4668.579999999991,1.216034946298755,643.3700000000008
14,35,30,3579,37.04945515507125,4245.819999999992,1.199333617213464,660.649999999999
14,40,15,3172,36.44388398486759,2549.6699999999983,1.1239833267038242,808.4800000000041
14,40,20,3297,36.42705489839248,3067.699999999998,1.1448366674677213,849.2700000000032
14,40,25,3325,36.30075187969925,3227.159999999999,1.1508580532095363,849.2700000000032
14,40,30,3326,36.28983764281419,3112.789999999998,1.1452642887076345,849.2700000000032
14,45,15,2927,37.3761530577383,2829.2299999999977,1.1435239390034797,610.6300000000056
14,45,20,3042,37.17948717948718,2856.12,1.1406869035157934,662.2899999999972
14,45,25,3077,37.276568085797855,2844.2300000000014,1.1389993637041604,668.6199999999963
14,45,30,3081,37.22817267121064,2714.869999999999,1.132337593524263,667.5399999999972
15,25,20,4666,40.912987569652806,7152.139999999979,1.3144100465055748,558.329999999999
15,30,20,3957,39.01945918625221,5189.45999999999,1.2338779787054246,1027.9300000000003
15,30,25,3956,38.902932254802835,4992.239999999989,1.2245106941013455,1036.87
15,35,20,3491,37.43912918934403,3742.2400000000066,1.1740125121015108,860.109999999996
15,35,25,3511,37.33978923383651,3892.51000000001,1.180759694940646,829.6399999999958
15,35,30,3503,37.25378247216671,3868.710000000009,1.1811534755136506,716.2599999999918
15,40,20,3201,37.11340206185567,2831.809999999994,1.1366460976042863,911.8500000000022
15,40,25,3243,36.87943262411348,2939.9799999999937,1.1405996760446646,881.3800000000019
15,40,30,3239,36.70886075949367,2600.0399999999927,1.1234453250075487,887.3700000000017
15,45,20,2944,37.16032608695652,2443.1200000000053,1.1210026631165053,817.8299999999999
15,45,25,2994,36.97394789579158,2430.200000000007,1.1194185629969533,820.3299999999999
15,45,30,3001,36.88770409863379,2377.5700000000056,1.1162053697763503,820.3299999999999
